# AreTomo Alignment / Priims bprmMn 
# 41  0
# SEC     ROT         GMAG       TX          TY      SMEAN     SFIT    SCALE     BASE     TILT
    0   -93.7196    1.00000    155.235    708.750     1.00     1.00     1.00     0.00    -51.98
    1   -93.7159    1.00000    128.849    676.340     1.00     1.00     1.00     0.00    -48.99
    2   -93.7124    1.00000    134.846    613.833     1.00     1.00     1.00     0.00    -45.98
    3   -93.7091    1.00000    107.625    566.838     1.00     1.00     1.00     0.00    -42.99
    4   -93.7059    1.00000    108.395    507.413     1.00     1.00     1.00     0.00    -39.99
    5   -93.7030    1.00000     84.198    446.246     1.00     1.00     1.00     0.00    -36.99
    6   -93.7002    1.00000     81.113    399.085     1.00     1.00     1.00     0.00    -33.99
    7   -93.6977    1.00000     60.877    346.606     1.00     1.00     1.00     0.00    -30.99
    8   -93.6953    1.00000     53.959    296.707     1.00     1.00     1.00     0.00    -27.99
    9   -93.6931    1.00000     43.198    270.877     1.00     1.00     1.00     0.00    -24.99
   10   -93.6911    1.00000     39.340    244.978     1.00     1.00     1.00     0.00    -21.99
   11   -93.6893    1.00000     33.461    211.421     1.00     1.00     1.00     0.00    -18.99
   12   -93.6877    1.00000     27.401    175.159     1.00     1.00     1.00     0.00    -15.99
   13   -93.6863    1.00000     24.861    139.327     1.00     1.00     1.00     0.00    -12.99
   14   -93.6850    1.00000     23.137     98.143     1.00     1.00     1.00     0.00     -9.99
   15   -93.6840    1.00000     15.483     57.622     1.00     1.00     1.00     0.00     -6.99
   16   -93.6831    1.00000     11.049     30.278     1.00     1.00     1.00     0.00     -4.00
   17   -93.6824    1.00000      0.000      0.000     1.00     1.00     1.00     0.00     -0.99
   18   -93.6820    1.00000     -4.212    -24.847     1.00     1.00     1.00     0.00      2.01
   19   -93.6817    1.00000      2.231    -53.775     1.00     1.00     1.00     0.00      5.01
   20   -93.6816    1.00000     -5.234    -82.498     1.00     1.00     1.00     0.00      8.00
   21   -93.6817    1.00000      1.697   -112.654     1.00     1.00     1.00     0.00     11.01
   22   -93.6820    1.00000     -2.945   -147.332     1.00     1.00     1.00     0.00     14.00
   23   -93.6824    1.00000      1.844   -180.162     1.00     1.00     1.00     0.00     17.00
   24   -93.6831    1.00000     -2.882   -237.103     1.00     1.00     1.00     0.00     20.00
   25   -93.6840    1.00000      0.249   -260.746     1.00     1.00     1.00     0.00     23.00
   26   -93.6850    1.00000      1.070   -316.773     1.00     1.00     1.00     0.00     26.00
   27   -93.6862    1.00000      0.033   -340.607     1.00     1.00     1.00     0.00     29.00
   28   -93.6877    1.00000      4.284   -394.799     1.00     1.00     1.00     0.00     32.00
   29   -93.6893    1.00000      0.778   -417.725     1.00     1.00     1.00     0.00     35.00
   30   -93.6911    1.00000      9.801   -465.182     1.00     1.00     1.00     0.00     38.00
   31   -93.6931    1.00000     -3.753   -487.110     1.00     1.00     1.00     0.00     41.00
   32   -93.6953    1.00000     13.374   -560.154     1.00     1.00     1.00     0.00     44.00
   33   -93.6977    1.00000     -2.007   -578.165     1.00     1.00     1.00     0.00     47.00
   34   -93.7002    1.00000     18.786   -611.088     1.00     1.00     1.00     0.00     50.00
   35   -93.7030    1.00000     18.440   -697.219     1.00     1.00     1.00     0.00     53.00
   36   -93.7059    1.00000     25.812   -722.878     1.00     1.00     1.00     0.00     56.00
   37   -93.7091    1.00000     31.904   -727.270     1.00     1.00     1.00     0.00     59.00
   38   -93.7124    1.00000     38.633   -733.246     1.00     1.00     1.00     0.00     62.00
   39   -93.7159    1.00000     39.619   -767.773     1.00     1.00     1.00     0.00     65.00
   40   -93.7196    1.00000     40.271   -800.005     1.00     1.00     1.00     0.00     68.00
