    0.107     0.994    -0.994     0.107    111.83     16.91
    0.107     0.994    -0.994     0.107    -44.86      0.32
    0.106     0.994    -0.994     0.106    100.70     15.99
    0.106     0.994    -0.994     0.106    -68.49      3.26
    0.105     0.994    -0.994     0.105     77.00      8.40
    0.105     0.995    -0.995     0.105    -69.20      6.97
    0.104     0.995    -0.995     0.104    100.44     11.49
    0.104     0.995    -0.995     0.104    -94.27      0.73
    0.103     0.995    -0.995     0.103     65.24      5.06
    0.103     0.995    -0.995     0.103    -93.21      7.83
    0.102     0.995    -0.995     0.102     82.06      7.33
    0.102     0.995    -0.995     0.102    -54.56      3.36
    0.102     0.995    -0.995     0.102    -24.27      4.62
    0.101     0.995    -0.995     0.101     -4.69      3.96
    0.101     0.995    -0.995     0.101      3.09      6.86
    0.101     0.995    -0.995     0.101     -0.00      0.00
    0.101     0.995    -0.995     0.101    -28.15      6.53
    0.101     0.995    -0.995     0.101     13.17      7.71
    0.100     0.995    -0.995     0.100    -16.60      3.43
    0.100     0.995    -0.995     0.100      7.66      5.25
    0.100     0.995    -0.995     0.100     -6.15      4.29
    0.100     0.995    -0.995     0.100     19.24      1.90
    0.100     0.995    -0.995     0.100    -20.96     11.49
    0.100     0.995    -0.995     0.100     11.58     -1.86
    0.100     0.995    -0.995     0.100      9.71     12.61
    0.100     0.995    -0.995     0.100     47.37     -3.98
    0.100     0.995    -0.995     0.100     -6.29     10.29
    0.101     0.995    -0.995     0.101     64.01      2.00
    0.101     0.995    -0.995     0.101      8.20      7.93
    0.101     0.995    -0.995     0.101     62.07      1.23
    0.101     0.995    -0.995     0.101     39.08      5.07
