# AreTomo Alignment / Priims bprmMn 
# 31  0
# SEC     ROT         GMAG       TX          TY      SMEAN     SFIT    SCALE     BASE     TILT
    0    83.8298    1.00000      4.792   -112.998     1.00     1.00     1.00     0.00    -42.00
    1    83.8672    1.00000      5.112     44.572     1.00     1.00     1.00     0.00    -39.00
    2    83.9029    1.00000      5.206   -101.828     1.00     1.00     1.00     0.00    -36.00
    3    83.9368    1.00000     10.472     67.764     1.00     1.00     1.00     0.00    -33.00
    4    83.9689    1.00000      0.264    -77.460     1.00     1.00     1.00     0.00    -30.00
    5    83.9994    1.00000     14.168     68.092     1.00     1.00     1.00     0.00    -27.00
    6    84.0280    1.00000      0.975   -101.092     1.00     1.00     1.00     0.00    -24.00
    7    84.0549    1.00000     10.489     93.688     1.00     1.00     1.00     0.00    -21.00
    8    84.0801    1.00000     -1.700    -65.414     1.00     1.00     1.00     0.00    -18.00
    9    84.1035    1.00000     17.363     91.914     1.00     1.00     1.00     0.00    -15.00
   10    84.1252    1.00000     -1.112    -82.382     1.00     1.00     1.00     0.00    -12.00
   11    84.1451    1.00000      8.907     53.931     1.00     1.00     1.00     0.00     -9.00
   12    84.1633    1.00000      7.068     23.672     1.00     1.00     1.00     0.00     -6.00
   13    84.1797    1.00000      4.418      4.266     1.00     1.00     1.00     0.00     -3.00
   14    84.1944    1.00000      6.514     -3.772     1.00     1.00     1.00     0.00      0.00
   15    84.2073    1.00000      0.000      0.000     1.00     1.00     1.00     0.00      3.00
   16    84.2185    1.00000      9.328     27.353     1.00     1.00     1.00     0.00      6.00
   17    84.2279    1.00000      6.342    -13.879     1.00     1.00     1.00     0.00      9.00
   18    84.2356    1.00000      5.077     16.168     1.00     1.00     1.00     0.00     12.00
   19    84.2416    1.00000      4.454     -8.145     1.00     1.00     1.00     0.00     15.00
   20    84.2458    1.00000      4.882      5.690     1.00     1.00     1.00     0.00     18.00
   21    84.2482    1.00000     -0.034    -19.339     1.00     1.00     1.00     0.00     21.00
   22    84.2489    1.00000     13.537     19.704     1.00     1.00     1.00     0.00     24.00
   23    84.2478    1.00000     -3.016    -11.334     1.00     1.00     1.00     0.00     27.00
   24    84.2450    1.00000     11.570    -10.921     1.00     1.00     1.00     0.00     30.00
   25    84.2405    1.00000     -8.710    -46.728     1.00     1.00     1.00     0.00     33.00
   26    84.2342    1.00000     10.873      5.222     1.00     1.00     1.00     0.00     36.00
   27    84.2262    1.00000     -4.449    -63.888     1.00     1.00     1.00     0.00     39.00
   28    84.2164    1.00000      7.069     -8.955     1.00     1.00     1.00     0.00     42.00
   29    84.2048    1.00000     -5.046    -61.877     1.00     1.00     1.00     0.00     45.00
   30    84.1916    1.00000      1.086    -39.389     1.00     1.00     1.00     0.00     48.00
